PE IR                   SPECTRUM    ASCII       PEDS        1.60        
  -1
~SP.SP
17/02/21
15:12:02.00
17/02/21
15:12:02.00
STUDI

650.000000
4









SPECTRUM 100,CPU32 MAIN 00.02.8200 12-DECEMBER-2006 10:00:00
MIR TGS
MIR
OPTKBR
79248
0.200000

4.000000
STRONG
RATIO
SPECTRUM
MAGNITUDE
UNIVERSAL ATR
DOUBLE

COMBINED


0


#HDR
-1
-1
#GR
CM-1
A
0.00000011920928955078
0.0
4000.000000
-1.000000
3351
8
0.388575
0.001388
#DATA
4000.000000	0.001388 
3999.000000	0.001466 
3998.000000	0.001562 
3997.000000	0.001644 
3996.000000	0.001701 
3995.000000	0.001737 
3994.000000	0.001750 
3993.000000	0.001733 
3992.000000	0.001690 
3991.000000	0.001636 
3990.000000	0.001595 
3989.000000	0.001585 
3988.000000	0.001607 
3987.000000	0.001651 
3986.000000	0.001698 
3985.000000	0.001732 
3984.000000	0.001739 
3983.000000	0.001723 
3982.000000	0.001696 
3981.000000	0.001679 
3980.000000	0.001680 
3979.000000	0.001693 
3978.000000	0.001703 
3977.000000	0.001700 
3976.000000	0.001688 
3975.000000	0.001682 
3974.000000	0.001694 
3973.000000	0.001734 
3972.000000	0.001798 
3971.000000	0.001864 
3970.000000	0.001897 
3969.000000	0.001871 
3968.000000	0.001801 
3967.000000	0.001737 
3966.000000	0.001727 
3965.000000	0.001780 
3964.000000	0.001855 
3963.000000	0.001899 
3962.000000	0.001888 
3961.000000	0.001839 
3960.000000	0.001789 
3959.000000	0.001763 
3958.000000	0.001764 
3957.000000	0.001781 
3956.000000	0.001804 
3955.000000	0.001824 
3954.000000	0.001835 
3953.000000	0.001835 
3952.000000	0.001831 
3951.000000	0.001824 
3950.000000	0.001813 
3949.000000	0.001791 
3948.000000	0.001768 
3947.000000	0.001772 
3946.000000	0.001825 
3945.000000	0.001918 
3944.000000	0.002002 
3943.000000	0.002018 
3942.000000	0.001951 
3941.000000	0.001840 
3940.000000	0.001752 
3939.000000	0.001722 
3938.000000	0.001737 
3937.000000	0.001753 
3936.000000	0.001747 
3935.000000	0.001728 
3934.000000	0.001721 
3933.000000	0.001741 
3932.000000	0.001777 
3931.000000	0.001807 
3930.000000	0.001812 
3929.000000	0.001799 
3928.000000	0.001793 
3927.000000	0.001808 
3926.000000	0.001833 
3925.000000	0.001833 
3924.000000	0.001786 
3923.000000	0.001701 
3922.000000	0.001609 
3921.000000	0.001544 
3920.000000	0.001529 
3919.000000	0.001568 
3918.000000	0.001641 
3917.000000	0.001715 
3916.000000	0.001760 
3915.000000	0.001767 
3914.000000	0.001744 
3913.000000	0.001707 
3912.000000	0.001675 
3911.000000	0.001661 
3910.000000	0.001667 
3909.000000	0.001688 
3908.000000	0.001714 
3907.000000	0.001739 
3906.000000	0.001764 
3905.000000	0.001788 
3904.000000	0.001811 
3903.000000	0.001834 
3902.000000	0.001863 
3901.000000	0.001893 
3900.000000	0.001909 
3899.000000	0.001900 
3898.000000	0.001866 
3897.000000	0.001827 
3896.000000	0.001802 
3895.000000	0.001797 
3894.000000	0.001799 
3893.000000	0.001781 
3892.000000	0.001723 
3891.000000	0.001644 
3890.000000	0.001592 
3889.000000	0.001611 
3888.000000	0.001692 
3887.000000	0.001780 
3886.000000	0.001811 
3885.000000	0.001776 
3884.000000	0.001727 
3883.000000	0.001722 
3882.000000	0.001767 
3881.000000	0.001816 
3880.000000	0.001825 
3879.000000	0.001798 
3878.000000	0.001780 
3877.000000	0.001799 
3876.000000	0.001841 
3875.000000	0.001867 
3874.000000	0.001862 
3873.000000	0.001857 
3872.000000	0.001888 
3871.000000	0.001943 
3870.000000	0.001982 
3869.000000	0.001985 
3868.000000	0.001970 
3867.000000	0.001960 
3866.000000	0.001954 
3865.000000	0.001941 
3864.000000	0.001909 
3863.000000	0.001858 
3862.000000	0.001801 
3861.000000	0.001764 
3860.000000	0.001764 
3859.000000	0.001781 
3858.000000	0.001778 
3857.000000	0.001745 
3856.000000	0.001715 
3855.000000	0.001725 
3854.000000	0.001760 
3853.000000	0.001787 
3852.000000	0.001807 
3851.000000	0.001831 
3850.000000	0.001856 
3849.000000	0.001875 
3848.000000	0.001895 
3847.000000	0.001918 
3846.000000	0.001939 
3845.000000	0.001942 
3844.000000	0.001919 
3843.000000	0.001886 
3842.000000	0.001873 
3841.000000	0.001900 
3840.000000	0.001959 
3839.000000	0.002018 
3838.000000	0.002046 
3837.000000	0.002034 
3836.000000	0.001997 
3835.000000	0.001966 
3834.000000	0.001965 
3833.000000	0.001993 
3832.000000	0.002025 
3831.000000	0.002032 
3830.000000	0.002014 
3829.000000	0.001995 
3828.000000	0.001999 
3827.000000	0.002017 
3826.000000	0.002023 
3825.000000	0.002005 
3824.000000	0.001984 
3823.000000	0.001986 
3822.000000	0.002004 
3821.000000	0.002002 
3820.000000	0.001973 
3819.000000	0.001944 
3818.000000	0.001948 
3817.000000	0.001998 
3816.000000	0.002083 
3815.000000	0.002182 
3814.000000	0.002273 
3813.000000	0.002326 
3812.000000	0.002324 
3811.000000	0.002281 
3810.000000	0.002230 
3809.000000	0.002194 
3808.000000	0.002170 
3807.000000	0.002140 
3806.000000	0.002112 
3805.000000	0.002112 
3804.000000	0.002154 
3803.000000	0.002227 
3802.000000	0.002296 
3801.000000	0.002343 
3800.000000	0.002384 
3799.000000	0.002437 
3798.000000	0.002497 
3797.000000	0.002551 
3796.000000	0.002598 
3795.000000	0.002642 
3794.000000	0.002681 
3793.000000	0.002700 
3792.000000	0.002683 
3791.000000	0.002633 
3790.000000	0.002580 
3789.000000	0.002563 
3788.000000	0.002600 
3787.000000	0.002673 
3786.000000	0.002740 
3785.000000	0.002774 
3784.000000	0.002783 
3783.000000	0.002793 
3782.000000	0.002815 
3781.000000	0.002835 
3780.000000	0.002831 
3779.000000	0.002807 
3778.000000	0.002781 
3777.000000	0.002766 
3776.000000	0.002754 
3775.000000	0.002737 
3774.000000	0.002726 
3773.000000	0.002743 
3772.000000	0.002789 
3771.000000	0.002840 
3770.000000	0.002872 
3769.000000	0.002900 
3768.000000	0.002957 
3767.000000	0.003047 
3766.000000	0.003131 
3765.000000	0.003169 
3764.000000	0.003161 
3763.000000	0.003148 
3762.000000	0.003166 
3761.000000	0.003217 
3760.000000	0.003281 
3759.000000	0.003332 
3758.000000	0.003347 
3757.000000	0.003322 
3756.000000	0.003269 
3755.000000	0.003213 
3754.000000	0.003167 
3753.000000	0.003138 
3752.000000	0.003137 
3751.000000	0.003181 
3750.000000	0.003268 
3749.000000	0.003375 
3748.000000	0.003476 
3747.000000	0.003565 
3746.000000	0.003652 
3745.000000	0.003731 
3744.000000	0.003796 
3743.000000	0.003863 
3742.000000	0.003934 
3741.000000	0.003985 
3740.000000	0.004010 
3739.000000	0.004032 
3738.000000	0.004076 
3737.000000	0.004143 
3736.000000	0.004207 
3735.000000	0.004259 
3734.000000	0.004310 
3733.000000	0.004379 
3732.000000	0.004472 
3731.000000	0.004581 
3730.000000	0.004683 
3729.000000	0.004760 
3728.000000	0.004805 
3727.000000	0.004834 
3726.000000	0.004876 
3725.000000	0.004955 
3724.000000	0.005074 
3723.000000	0.005208 
3722.000000	0.005325 
3721.000000	0.005407 
3720.000000	0.005478 
3719.000000	0.005578 
3718.000000	0.005728 
3717.000000	0.005911 
3716.000000	0.006090 
3715.000000	0.006244 
3714.000000	0.006380 
3713.000000	0.006516 
3712.000000	0.006656 
3711.000000	0.006800 
3710.000000	0.006951 
3709.000000	0.007120 
3708.000000	0.007316 
3707.000000	0.007535 
3706.000000	0.007766 
3705.000000	0.008002 
3704.000000	0.008234 
3703.000000	0.008449 
3702.000000	0.008639 
3701.000000	0.008812 
3700.000000	0.008997 
3699.000000	0.009220 
3698.000000	0.009482 
3697.000000	0.009758 
3696.000000	0.010031 
3695.000000	0.010307 
3694.000000	0.010602 
3693.000000	0.010921 
3692.000000	0.011256 
3691.000000	0.011602 
3690.000000	0.011964 
3689.000000	0.012348 
3688.000000	0.012757 
3687.000000	0.013185 
3686.000000	0.013621 
3685.000000	0.014065 
3684.000000	0.014529 
3683.000000	0.015024 
3682.000000	0.015532 
3681.000000	0.016008 
3680.000000	0.016433 
3679.000000	0.016854 
3678.000000	0.017364 
3677.000000	0.018004 
3676.000000	0.018705 
3675.000000	0.019355 
3674.000000	0.019917 
3673.000000	0.020438 
3672.000000	0.020993 
3671.000000	0.021621 
3670.000000	0.022306 
3669.000000	0.023016 
3668.000000	0.023732 
3667.000000	0.024449 
3666.000000	0.025159 
3665.000000	0.025856 
3664.000000	0.026545 
3663.000000	0.027253 
3662.000000	0.028011 
3661.000000	0.028818 
3660.000000	0.029637 
3659.000000	0.030425 
3658.000000	0.031164 
3657.000000	0.031861 
3656.000000	0.032531 
3655.000000	0.033186 
3654.000000	0.033838 
3653.000000	0.034509 
3652.000000	0.035228 
3651.000000	0.036017 
3650.000000	0.036865 
3649.000000	0.037733 
3648.000000	0.038578 
3647.000000	0.039377 
3646.000000	0.040136 
3645.000000	0.040877 
3644.000000	0.041613 
3643.000000	0.042337 
3642.000000	0.043037 
3641.000000	0.043717 
3640.000000	0.044390 
3639.000000	0.045065 
3638.000000	0.045737 
3637.000000	0.046408 
3636.000000	0.047090 
3635.000000	0.047788 
3634.000000	0.048500 
3633.000000	0.049219 
3632.000000	0.049946 
3631.000000	0.050686 
3630.000000	0.051411 
3629.000000	0.052082 
3628.000000	0.052699 
3627.000000	0.053306 
3626.000000	0.053938 
3625.000000	0.054596 
3624.000000	0.055264 
3623.000000	0.055938 
3622.000000	0.056618 
3621.000000	0.057302 
3620.000000	0.057977 
3619.000000	0.058644 
3618.000000	0.059328 
3617.000000	0.060056 
3616.000000	0.060820 
3615.000000	0.061578 
3614.000000	0.062295 
3613.000000	0.062966 
3612.000000	0.063615 
3611.000000	0.064262 
3610.000000	0.064907 
3609.000000	0.065545 
3608.000000	0.066188 
3607.000000	0.066865 
3606.000000	0.067595 
3605.000000	0.068372 
3604.000000	0.069160 
3603.000000	0.069914 
3602.000000	0.070605 
3601.000000	0.071236 
3600.000000	0.071851 
3599.000000	0.072501 
3598.000000	0.073211 
3597.000000	0.073967 
3596.000000	0.074733 
3595.000000	0.075473 
3594.000000	0.076172 
3593.000000	0.076844 
3592.000000	0.077522 
3591.000000	0.078236 
3590.000000	0.078991 
3589.000000	0.079762 
3588.000000	0.080523 
3587.000000	0.081274 
3586.000000	0.082031 
3585.000000	0.082798 
3584.000000	0.083558 
3583.000000	0.084300 
3582.000000	0.085040 
3581.000000	0.085802 
3580.000000	0.086587 
3579.000000	0.087375 
3578.000000	0.088144 
3577.000000	0.088891 
3576.000000	0.089642 
3575.000000	0.090432 
3574.000000	0.091282 
3573.000000	0.092175 
3572.000000	0.093064 
3571.000000	0.093912 
3570.000000	0.094720 
3569.000000	0.095518 
3568.000000	0.096336 
3567.000000	0.097184 
3566.000000	0.098057 
3565.000000	0.098937 
3564.000000	0.099805 
3563.000000	0.100656 
3562.000000	0.101513 
3561.000000	0.102391 
3560.000000	0.103273 
3559.000000	0.104118 
3558.000000	0.104917 
3557.000000	0.105706 
3556.000000	0.106533 
3555.000000	0.107406 
3554.000000	0.108292 
3553.000000	0.109166 
3552.000000	0.110037 
3551.000000	0.110939 
3550.000000	0.111894 
3549.000000	0.112894 
3548.000000	0.113907 
3547.000000	0.114894 
3546.000000	0.115837 
3545.000000	0.116750 
3544.000000	0.117664 
3543.000000	0.118586 
3542.000000	0.119493 
3541.000000	0.120358 
3540.000000	0.121183 
3539.000000	0.122000 
3538.000000	0.122838 
3537.000000	0.123720 
3536.000000	0.124659 
3535.000000	0.125665 
3534.000000	0.126729 
3533.000000	0.127815 
3532.000000	0.128881 
3531.000000	0.129904 
3530.000000	0.130885 
3529.000000	0.131829 
3528.000000	0.132732 
3527.000000	0.133581 
3526.000000	0.134389 
3525.000000	0.135207 
3524.000000	0.136092 
3523.000000	0.137056 
3522.000000	0.138050 
3521.000000	0.139007 
3520.000000	0.139911 
3519.000000	0.140806 
3518.000000	0.141734 
3517.000000	0.142684 
3516.000000	0.143619 
3515.000000	0.144534 
3514.000000	0.145471 
3513.000000	0.146469 
3512.000000	0.147516 
3511.000000	0.148563 
3510.000000	0.149578 
3509.000000	0.150574 
3508.000000	0.151576 
3507.000000	0.152580 
3506.000000	0.153557 
3505.000000	0.154492 
3504.000000	0.155414 
3503.000000	0.156376 
3502.000000	0.157403 
3501.000000	0.158479 
3500.000000	0.159572 
3499.000000	0.160663 
3498.000000	0.161742 
3497.000000	0.162794 
3496.000000	0.163802 
3495.000000	0.164754 
3494.000000	0.165661 
3493.000000	0.166541 
3492.000000	0.167425 
3491.000000	0.168351 
3490.000000	0.169351 
3489.000000	0.170418 
3488.000000	0.171509 
3487.000000	0.172568 
3486.000000	0.173564 
3485.000000	0.174510 
3484.000000	0.175446 
3483.000000	0.176410 
3482.000000	0.177412 
3481.000000	0.178433 
3480.000000	0.179449 
3479.000000	0.180455 
3478.000000	0.181458 
3477.000000	0.182460 
3476.000000	0.183449 
3475.000000	0.184423 
3474.000000	0.185404 
3473.000000	0.186419 
3472.000000	0.187462 
3471.000000	0.188498 
3470.000000	0.189496 
3469.000000	0.190456 
3468.000000	0.191410 
3467.000000	0.192394 
3466.000000	0.193431 
3465.000000	0.194521 
3464.000000	0.195640 
3463.000000	0.196749 
3462.000000	0.197811 
3461.000000	0.198815 
3460.000000	0.199783 
3459.000000	0.200759 
3458.000000	0.201779 
3457.000000	0.202851 
3456.000000	0.203951 
3455.000000	0.205046 
3454.000000	0.206113 
3453.000000	0.207155 
3452.000000	0.208184 
3451.000000	0.209207 
3450.000000	0.210216 
3449.000000	0.211211 
3448.000000	0.212210 
3447.000000	0.213240 
3446.000000	0.214308 
3445.000000	0.215389 
3444.000000	0.216444 
3443.000000	0.217458 
3442.000000	0.218451 
3441.000000	0.219469 
3440.000000	0.220544 
3439.000000	0.221672 
3438.000000	0.222810 
3437.000000	0.223913 
3436.000000	0.224972 
3435.000000	0.226017 
3434.000000	0.227084 
3433.000000	0.228174 
3432.000000	0.229253 
3431.000000	0.230285 
3430.000000	0.231254 
3429.000000	0.232180 
3428.000000	0.233105 
3427.000000	0.234075 
3426.000000	0.235113 
3425.000000	0.236207 
3424.000000	0.237324 
3423.000000	0.238426 
3422.000000	0.239480 
3421.000000	0.240467 
3420.000000	0.241390 
3419.000000	0.242275 
3418.000000	0.243146 
3417.000000	0.244010 
3416.000000	0.244880 
3415.000000	0.245794 
3414.000000	0.246778 
3413.000000	0.247784 
3412.000000	0.248724 
3411.000000	0.249563 
3410.000000	0.250370 
3409.000000	0.251247 
3408.000000	0.252219 
3407.000000	0.253216 
3406.000000	0.254163 
3405.000000	0.255049 
3404.000000	0.255917 
3403.000000	0.256794 
3402.000000	0.257662 
3401.000000	0.258475 
3400.000000	0.259206 
3399.000000	0.259872 
3398.000000	0.260519 
3397.000000	0.261185 
3396.000000	0.261882 
3395.000000	0.262596 
3394.000000	0.263317 
3393.000000	0.264046 
3392.000000	0.264779 
3391.000000	0.265495 
3390.000000	0.266171 
3389.000000	0.266805 
3388.000000	0.267427 
3387.000000	0.268074 
3386.000000	0.268759 
3385.000000	0.269454 
3384.000000	0.270108 
3383.000000	0.270692 
3382.000000	0.271218 
3381.000000	0.271725 
3380.000000	0.272232 
3379.000000	0.272721 
3378.000000	0.273172 
3377.000000	0.273605 
3376.000000	0.274076 
3375.000000	0.274620 
3374.000000	0.275215 
3373.000000	0.275785 
3372.000000	0.276261 
3371.000000	0.276631 
3370.000000	0.276942 
3369.000000	0.277254 
3368.000000	0.277596 
3367.000000	0.277953 
3366.000000	0.278288 
3365.000000	0.278579 
3364.000000	0.278837 
3363.000000	0.279096 
3362.000000	0.279383 
3361.000000	0.279686 
3360.000000	0.279963 
3359.000000	0.280181 
3358.000000	0.280349 
3357.000000	0.280512 
3356.000000	0.280710 
3355.000000	0.280945 
3354.000000	0.281190 
3353.000000	0.281421 
3352.000000	0.281623 
3351.000000	0.281791 
3350.000000	0.281923 
3349.000000	0.282030 
3348.000000	0.282133 
3347.000000	0.282243 
3346.000000	0.282364 
3345.000000	0.282502 
3344.000000	0.282660 
3343.000000	0.282828 
3342.000000	0.282976 
3341.000000	0.283081 
3340.000000	0.283142 
3339.000000	0.283165 
3338.000000	0.283153 
3337.000000	0.283115 
3336.000000	0.283092 
3335.000000	0.283123 
3334.000000	0.283203 
3333.000000	0.283274 
3332.000000	0.283287 
3331.000000	0.283256 
3330.000000	0.283235 
3329.000000	0.283251 
3328.000000	0.283283 
3327.000000	0.283288 
3326.000000	0.283244 
3325.000000	0.283157 
3324.000000	0.283061 
3323.000000	0.282997 
3322.000000	0.283000 
3321.000000	0.283061 
3320.000000	0.283119 
3319.000000	0.283094 
3318.000000	0.282964 
3317.000000	0.282790 
3316.000000	0.282670 
3315.000000	0.282655 
3314.000000	0.282711 
3313.000000	0.282778 
3312.000000	0.282826 
3311.000000	0.282860 
3310.000000	0.282883 
3309.000000	0.282882 
3308.000000	0.282848 
3307.000000	0.282799 
3306.000000	0.282754 
3305.000000	0.282713 
3304.000000	0.282651 
3303.000000	0.282552 
3302.000000	0.282432 
3301.000000	0.282342 
3300.000000	0.282324 
3299.000000	0.282366 
3298.000000	0.282389 
3297.000000	0.282328 
3296.000000	0.282207 
3295.000000	0.282131 
3294.000000	0.282182 
3293.000000	0.282332 
3292.000000	0.282471 
3291.000000	0.282499 
3290.000000	0.282398 
3289.000000	0.282227 
3288.000000	0.282073 
3287.000000	0.281999 
3286.000000	0.281996 
3285.000000	0.282001 
3284.000000	0.281958 
3283.000000	0.281879 
3282.000000	0.281825 
3281.000000	0.281830 
3280.000000	0.281862 
3279.000000	0.281867 
3278.000000	0.281816 
3277.000000	0.281723 
3276.000000	0.281614 
3275.000000	0.281511 
3274.000000	0.281430 
3273.000000	0.281381 
3272.000000	0.281360 
3271.000000	0.281345 
3270.000000	0.281307 
3269.000000	0.281220 
3268.000000	0.281073 
3267.000000	0.280888 
3266.000000	0.280705 
3265.000000	0.280563 
3264.000000	0.280469 
3263.000000	0.280403 
3262.000000	0.280340 
3261.000000	0.280263 
3260.000000	0.280169 
3259.000000	0.280054 
3258.000000	0.279929 
3257.000000	0.279808 
3256.000000	0.279694 
3255.000000	0.279564 
3254.000000	0.279400 
3253.000000	0.279208 
3252.000000	0.279001 
3251.000000	0.278759 
3250.000000	0.278443 
3249.000000	0.278046 
3248.000000	0.277627 
3247.000000	0.277265 
3246.000000	0.276997 
3245.000000	0.276809 
3244.000000	0.276658 
3243.000000	0.276493 
3242.000000	0.276256 
3241.000000	0.275912 
3240.000000	0.275471 
3239.000000	0.274989 
3238.000000	0.274523 
3237.000000	0.274107 
3236.000000	0.273737 
3235.000000	0.273377 
3234.000000	0.272972 
3233.000000	0.272488 
3232.000000	0.271942 
3231.000000	0.271379 
3230.000000	0.270823 
3229.000000	0.270262 
3228.000000	0.269689 
3227.000000	0.269112 
3226.000000	0.268530 
3225.000000	0.267916 
3224.000000	0.267248 
3223.000000	0.266533 
3222.000000	0.265804 
3221.000000	0.265096 
3220.000000	0.264420 
3219.000000	0.263763 
3218.000000	0.263088 
3217.000000	0.262369 
3216.000000	0.261618 
3215.000000	0.260865 
3214.000000	0.260117 
3213.000000	0.259349 
3212.000000	0.258542 
3211.000000	0.257716 
3210.000000	0.256898 
3209.000000	0.256089 
3208.000000	0.255262 
3207.000000	0.254392 
3206.000000	0.253457 
3205.000000	0.252447 
3204.000000	0.251377 
3203.000000	0.250289 
3202.000000	0.249223 
3201.000000	0.248183 
3200.000000	0.247148 
3199.000000	0.246101 
3198.000000	0.245042 
3197.000000	0.243975 
3196.000000	0.242916 
3195.000000	0.241881 
3194.000000	0.240867 
3193.000000	0.239838 
3192.000000	0.238762 
3191.000000	0.237636 
3190.000000	0.236479 
3189.000000	0.235291 
3188.000000	0.234062 
3187.000000	0.232810 
3186.000000	0.231576 
3185.000000	0.230380 
3184.000000	0.229207 
3183.000000	0.228034 
3182.000000	0.226844 
3181.000000	0.225632 
3180.000000	0.224391 
3179.000000	0.223126 
3178.000000	0.221856 
3177.000000	0.220596 
3176.000000	0.219345 
3175.000000	0.218096 
3174.000000	0.216845 
3173.000000	0.215588 
3172.000000	0.214319 
3171.000000	0.213040 
3170.000000	0.211762 
3169.000000	0.210492 
3168.000000	0.209224 
3167.000000	0.207948 
3166.000000	0.206655 
3165.000000	0.205336 
3164.000000	0.203992 
3163.000000	0.202636 
3162.000000	0.201292 
3161.000000	0.199963 
3160.000000	0.198630 
3159.000000	0.197275 
3158.000000	0.195901 
3157.000000	0.194529 
3156.000000	0.193174 
3155.000000	0.191839 
3154.000000	0.190523 
3153.000000	0.189223 
3152.000000	0.187937 
3151.000000	0.186657 
3150.000000	0.185371 
3149.000000	0.184053 
3148.000000	0.182679 
3147.000000	0.181259 
3146.000000	0.179838 
3145.000000	0.178466 
3144.000000	0.177146 
3143.000000	0.175838 
3142.000000	0.174503 
3141.000000	0.173139 
3140.000000	0.171775 
3139.000000	0.170441 
3138.000000	0.169138 
3137.000000	0.167844 
3136.000000	0.166540 
3135.000000	0.165237 
3134.000000	0.163967 
3133.000000	0.162747 
3132.000000	0.161549 
3131.000000	0.160317 
3130.000000	0.159012 
3129.000000	0.157640 
3128.000000	0.156243 
3127.000000	0.154881 
3126.000000	0.153590 
3125.000000	0.152370 
3124.000000	0.151176 
3123.000000	0.149949 
3122.000000	0.148661 
3121.000000	0.147338 
3120.000000	0.146032 
3119.000000	0.144776 
3118.000000	0.143566 
3117.000000	0.142377 
3116.000000	0.141193 
3115.000000	0.140013 
3114.000000	0.138840 
3113.000000	0.137674 
3112.000000	0.136516 
3111.000000	0.135371 
3110.000000	0.134236 
3109.000000	0.133097 
3108.000000	0.131935 
3107.000000	0.130744 
3106.000000	0.129537 
3105.000000	0.128342 
3104.000000	0.127193 
3103.000000	0.126105 
3102.000000	0.125058 
3101.000000	0.124002 
3100.000000	0.122894 
3099.000000	0.121734 
3098.000000	0.120563 
3097.000000	0.119434 
3096.000000	0.118369 
3095.000000	0.117350 
3094.000000	0.116332 
3093.000000	0.115275 
3092.000000	0.114177 
3091.000000	0.113062 
3090.000000	0.111957 
3089.000000	0.110870 
3088.000000	0.109807 
3087.000000	0.108784 
3086.000000	0.107821 
3085.000000	0.106903 
3084.000000	0.105995 
3083.000000	0.105069 
3082.000000	0.104130 
3081.000000	0.103190 
3080.000000	0.102246 
3079.000000	0.101278 
3078.000000	0.100278 
3077.000000	0.099253 
3076.000000	0.098229 
3075.000000	0.097248 
3074.000000	0.096345 
3073.000000	0.095516 
3072.000000	0.094713 
3071.000000	0.093877 
3070.000000	0.092984 
3069.000000	0.092055 
3068.000000	0.091128 
3067.000000	0.090237 
3066.000000	0.089393 
3065.000000	0.088583 
3064.000000	0.087776 
3063.000000	0.086950 
3062.000000	0.086105 
3061.000000	0.085261 
3060.000000	0.084434 
3059.000000	0.083636 
3058.000000	0.082876 
3057.000000	0.082149 
3056.000000	0.081420 
3055.000000	0.080654 
3054.000000	0.079849 
3053.000000	0.079044 
3052.000000	0.078274 
3051.000000	0.077545 
3050.000000	0.076828 
3049.000000	0.076096 
3048.000000	0.075331 
3047.000000	0.074543 
3046.000000	0.073768 
3045.000000	0.073041 
3044.000000	0.072364 
3043.000000	0.071701 
3042.000000	0.071024 
3041.000000	0.070348 
3040.000000	0.069709 
3039.000000	0.069114 
3038.000000	0.068536 
3037.000000	0.067951 
3036.000000	0.067352 
3035.000000	0.066740 
3034.000000	0.066109 
3033.000000	0.065460 
3032.000000	0.064812 
3031.000000	0.064178 
3030.000000	0.063550 
3029.000000	0.062928 
3028.000000	0.062340 
3027.000000	0.061826 
3026.000000	0.061398 
3025.000000	0.061017 
3024.000000	0.060619 
3023.000000	0.060158 
3022.000000	0.059619 
3021.000000	0.059028 
3020.000000	0.058432 
3019.000000	0.057874 
3018.000000	0.057362 
3017.000000	0.056865 
3016.000000	0.056339 
3015.000000	0.055768 
3014.000000	0.055173 
3013.000000	0.054589 
3012.000000	0.054030 
3011.000000	0.053477 
3010.000000	0.052898 
3009.000000	0.052293 
3008.000000	0.051704 
3007.000000	0.051175 
3006.000000	0.050698 
3005.000000	0.050214 
3004.000000	0.049677 
3003.000000	0.049097 
3002.000000	0.048526 
3001.000000	0.047996 
3000.000000	0.047502 
2999.000000	0.047028 
2998.000000	0.046571 
2997.000000	0.046132 
2996.000000	0.045702 
2995.000000	0.045262 
2994.000000	0.044791 
2993.000000	0.044288 
2992.000000	0.043777 
2991.000000	0.043289 
2990.000000	0.042844 
2989.000000	0.042429 
2988.000000	0.042017 
2987.000000	0.041594 
2986.000000	0.041175 
2985.000000	0.040777 
2984.000000	0.040404 
2983.000000	0.040043 
2982.000000	0.039688 
2981.000000	0.039340 
2980.000000	0.039000 
2979.000000	0.038658 
2978.000000	0.038299 
2977.000000	0.037913 
2976.000000	0.037505 
2975.000000	0.037100 
2974.000000	0.036723 
2973.000000	0.036383 
2972.000000	0.036063 
2971.000000	0.035739 
2970.000000	0.035397 
2969.000000	0.035033 
2968.000000	0.034649 
2967.000000	0.034258 
2966.000000	0.033874 
2965.000000	0.033506 
2964.000000	0.033157 
2963.000000	0.032830 
2962.000000	0.032532 
2961.000000	0.032266 
2960.000000	0.032023 
2959.000000	0.031794 
2958.000000	0.031569 
2957.000000	0.031338 
2956.000000	0.031082 
2955.000000	0.030792 
2954.000000	0.030482 
2953.000000	0.030165 
2952.000000	0.029842 
2951.000000	0.029509 
2950.000000	0.029177 
2949.000000	0.028877 
2948.000000	0.028621 
2947.000000	0.028381 
2946.000000	0.028116 
2945.000000	0.027815 
2944.000000	0.027505 
2943.000000	0.027227 
2942.000000	0.026996 
2941.000000	0.026797 
2940.000000	0.026604 
2939.000000	0.026399 
2938.000000	0.026178 
2937.000000	0.025952 
2936.000000	0.025743 
2935.000000	0.025567 
2934.000000	0.025426 
2933.000000	0.025298 
2932.000000	0.025159 
2931.000000	0.025004 
2930.000000	0.024849 
2929.000000	0.024701 
2928.000000	0.024541 
2927.000000	0.024336 
2926.000000	0.024074 
2925.000000	0.023779 
2924.000000	0.023489 
2923.000000	0.023224 
2922.000000	0.022985 
2921.000000	0.022759 
2920.000000	0.022540 
2919.000000	0.022339 
2918.000000	0.022168 
2917.000000	0.022011 
2916.000000	0.021825 
2915.000000	0.021575 
2914.000000	0.021266 
2913.000000	0.020942 
2912.000000	0.020644 
2911.000000	0.020383 
2910.000000	0.020152 
2909.000000	0.019949 
2908.000000	0.019776 
2907.000000	0.019628 
2906.000000	0.019484 
2905.000000	0.019320 
2904.000000	0.019126 
2903.000000	0.018914 
2902.000000	0.018706 
2901.000000	0.018516 
2900.000000	0.018341 
2899.000000	0.018169 
2898.000000	0.017993 
2897.000000	0.017812 
2896.000000	0.017634 
2895.000000	0.017462 
2894.000000	0.017301 
2893.000000	0.017154 
2892.000000	0.017017 
2891.000000	0.016889 
2890.000000	0.016771 
2889.000000	0.016658 
2888.000000	0.016543 
2887.000000	0.016417 
2886.000000	0.016284 
2885.000000	0.016150 
2884.000000	0.016014 
2883.000000	0.015861 
2882.000000	0.015685 
2881.000000	0.015501 
2880.000000	0.015335 
2879.000000	0.015197 
2878.000000	0.015080 
2877.000000	0.014965 
2876.000000	0.014844 
2875.000000	0.014715 
2874.000000	0.014582 
2873.000000	0.014447 
2872.000000	0.014312 
2871.000000	0.014178 
2870.000000	0.014046 
2869.000000	0.013907 
2868.000000	0.013756 
2867.000000	0.013598 
2866.000000	0.013453 
2865.000000	0.013340 
2864.000000	0.013252 
2863.000000	0.013169 
2862.000000	0.013080 
2861.000000	0.012987 
2860.000000	0.012890 
2859.000000	0.012784 
2858.000000	0.012669 
2857.000000	0.012564 
2856.000000	0.012485 
2855.000000	0.012428 
2854.000000	0.012379 
2853.000000	0.012324 
2852.000000	0.012251 
2851.000000	0.012150 
2850.000000	0.012022 
2849.000000	0.011883 
2848.000000	0.011750 
2847.000000	0.011633 
2846.000000	0.011530 
2845.000000	0.011442 
2844.000000	0.011367 
2843.000000	0.011297 
2842.000000	0.011222 
2841.000000	0.011141 
2840.000000	0.011055 
2839.000000	0.010961 
2838.000000	0.010852 
2837.000000	0.010738 
2836.000000	0.010639 
2835.000000	0.010568 
2834.000000	0.010517 
2833.000000	0.010470 
2832.000000	0.010407 
2831.000000	0.010313 
2830.000000	0.010184 
2829.000000	0.010042 
2828.000000	0.009926 
2827.000000	0.009862 
2826.000000	0.009839 
2825.000000	0.009817 
2824.000000	0.009761 
2823.000000	0.009667 
2822.000000	0.009562 
2821.000000	0.009475 
2820.000000	0.009416 
2819.000000	0.009367 
2818.000000	0.009304 
2817.000000	0.009222 
2816.000000	0.009144 
2815.000000	0.009092 
2814.000000	0.009062 
2813.000000	0.009025 
2812.000000	0.008957 
2811.000000	0.008862 
2810.000000	0.008765 
2809.000000	0.008686 
2808.000000	0.008627 
2807.000000	0.008576 
2806.000000	0.008519 
2805.000000	0.008454 
2804.000000	0.008387 
2803.000000	0.008319 
2802.000000	0.008249 
2801.000000	0.008182 
2800.000000	0.008133 
2799.000000	0.008106 
2798.000000	0.008080 
2797.000000	0.008030 
2796.000000	0.007947 
2795.000000	0.007850 
2794.000000	0.007759 
2793.000000	0.007684 
2792.000000	0.007629 
2791.000000	0.007600 
2790.000000	0.007586 
2789.000000	0.007557 
2788.000000	0.007494 
2787.000000	0.007412 
2786.000000	0.007346 
2785.000000	0.007321 
2784.000000	0.007329 
2783.000000	0.007350 
2782.000000	0.007363 
2781.000000	0.007351 
2780.000000	0.007301 
2779.000000	0.007216 
2778.000000	0.007118 
2777.000000	0.007026 
2776.000000	0.006946 
2775.000000	0.006876 
2774.000000	0.006825 
2773.000000	0.006808 
2772.000000	0.006821 
2771.000000	0.006837 
2770.000000	0.006831 
2769.000000	0.006800 
2768.000000	0.006762 
2767.000000	0.006728 
2766.000000	0.006700 
2765.000000	0.006674 
2764.000000	0.006650 
2763.000000	0.006623 
2762.000000	0.006583 
2761.000000	0.006519 
2760.000000	0.006437 
2759.000000	0.006359 
2758.000000	0.006293 
2757.000000	0.006233 
2756.000000	0.006164 
2755.000000	0.006097 
2754.000000	0.006052 
2753.000000	0.006039 
2752.000000	0.006037 
2751.000000	0.006023 
2750.000000	0.005994 
2749.000000	0.005968 
2748.000000	0.005957 
2747.000000	0.005952 
2746.000000	0.005933 
2745.000000	0.005889 
2744.000000	0.005828 
2743.000000	0.005774 
2742.000000	0.005743 
2741.000000	0.005741 
2740.000000	0.005752 
2739.000000	0.005749 
2738.000000	0.005714 
2737.000000	0.005650 
2736.000000	0.005578 
2735.000000	0.005525 
2734.000000	0.005501 
2733.000000	0.005504 
2732.000000	0.005519 
2731.000000	0.005529 
2730.000000	0.005518 
2729.000000	0.005483 
2728.000000	0.005436 
2727.000000	0.005397 
2726.000000	0.005380 
2725.000000	0.005379 
2724.000000	0.005379 
2723.000000	0.005361 
2722.000000	0.005314 
2721.000000	0.005243 
2720.000000	0.005174 
2719.000000	0.005139 
2718.000000	0.005146 
2717.000000	0.005176 
2716.000000	0.005197 
2715.000000	0.005199 
2714.000000	0.005198 
2713.000000	0.005200 
2712.000000	0.005199 
2711.000000	0.005180 
2710.000000	0.005141 
2709.000000	0.005091 
2708.000000	0.005038 
2707.000000	0.004995 
2706.000000	0.004980 
2705.000000	0.005000 
2704.000000	0.005038 
2703.000000	0.005055 
2702.000000	0.005025 
2701.000000	0.004956 
2700.000000	0.004881 
2699.000000	0.004829 
2698.000000	0.004806 
2697.000000	0.004805 
2696.000000	0.004816 
2695.000000	0.004835 
2694.000000	0.004860 
2693.000000	0.004881 
2692.000000	0.004883 
2691.000000	0.004861 
2690.000000	0.004822 
2689.000000	0.004781 
2688.000000	0.004746 
2687.000000	0.004719 
2686.000000	0.004703 
2685.000000	0.004707 
2684.000000	0.004733 
2683.000000	0.004769 
2682.000000	0.004790 
2681.000000	0.004788 
2680.000000	0.004771 
2679.000000	0.004758 
2678.000000	0.004749 
2677.000000	0.004733 
2676.000000	0.004704 
2675.000000	0.004669 
2674.000000	0.004643 
2673.000000	0.004629 
2672.000000	0.004616 
2671.000000	0.004597 
2670.000000	0.004576 
2669.000000	0.004563 
2668.000000	0.004555 
2667.000000	0.004544 
2666.000000	0.004527 
2665.000000	0.004514 
2664.000000	0.004514 
2663.000000	0.004516 
2662.000000	0.004502 
2661.000000	0.004467 
2660.000000	0.004435 
2659.000000	0.004435 
2658.000000	0.004469 
2657.000000	0.004505 
2656.000000	0.004507 
2655.000000	0.004471 
2654.000000	0.004425 
2653.000000	0.004394 
2652.000000	0.004387 
2651.000000	0.004396 
2650.000000	0.004412 
2649.000000	0.004430 
2648.000000	0.004448 
2647.000000	0.004462 
2646.000000	0.004463 
2645.000000	0.004452 
2644.000000	0.004438 
2643.000000	0.004438 
2642.000000	0.004456 
2641.000000	0.004479 
2640.000000	0.004490 
2639.000000	0.004480 
2638.000000	0.004453 
2637.000000	0.004423 
2636.000000	0.004406 
2635.000000	0.004418 
2634.000000	0.004457 
2633.000000	0.004495 
2632.000000	0.004503 
2631.000000	0.004477 
2630.000000	0.004440 
2629.000000	0.004403 
2628.000000	0.004351 
2627.000000	0.004268 
2626.000000	0.004174 
2625.000000	0.004114 
2624.000000	0.004126 
2623.000000	0.004203 
2622.000000	0.004300 
2621.000000	0.004371 
2620.000000	0.004402 
2619.000000	0.004414 
2618.000000	0.004431 
2617.000000	0.004455 
2616.000000	0.004468 
2615.000000	0.004462 
2614.000000	0.004448 
2613.000000	0.004441 
2612.000000	0.004441 
2611.000000	0.004445 
2610.000000	0.004451 
2609.000000	0.004456 
2608.000000	0.004456 
2607.000000	0.004453 
2606.000000	0.004462 
2605.000000	0.004492 
2604.000000	0.004531 
2603.000000	0.004558 
2602.000000	0.004557 
2601.000000	0.004524 
2600.000000	0.004472 
2599.000000	0.004437 
2598.000000	0.004455 
2597.000000	0.004517 
2596.000000	0.004570 
2595.000000	0.004565 
2594.000000	0.004512 
2593.000000	0.004468 
2592.000000	0.004468 
2591.000000	0.004495 
2590.000000	0.004512 
2589.000000	0.004509 
2588.000000	0.004499 
2587.000000	0.004489 
2586.000000	0.004474 
2585.000000	0.004447 
2584.000000	0.004415 
2583.000000	0.004398 
2582.000000	0.004402 
2581.000000	0.004418 
2580.000000	0.004428 
2579.000000	0.004425 
2578.000000	0.004426 
2577.000000	0.004448 
2576.000000	0.004490 
2575.000000	0.004534 
2574.000000	0.004567 
2573.000000	0.004589 
2572.000000	0.004602 
2571.000000	0.004601 
2570.000000	0.004586 
2569.000000	0.004571 
2568.000000	0.004574 
2567.000000	0.004605 
2566.000000	0.004649 
2565.000000	0.004681 
2564.000000	0.004689 
2563.000000	0.004685 
2562.000000	0.004683 
2561.000000	0.004675 
2560.000000	0.004647 
2559.000000	0.004613 
2558.000000	0.004609 
2557.000000	0.004652 
2556.000000	0.004713 
2555.000000	0.004754 
2554.000000	0.004769 
2553.000000	0.004784 
2552.000000	0.004820 
2551.000000	0.004860 
2550.000000	0.004880 
2549.000000	0.004873 
2548.000000	0.004856 
2547.000000	0.004850 
2546.000000	0.004868 
2545.000000	0.004899 
2544.000000	0.004915 
2543.000000	0.004897 
2542.000000	0.004855 
2541.000000	0.004835 
2540.000000	0.004878 
2539.000000	0.004993 
2538.000000	0.005133 
2537.000000	0.005227 
2536.000000	0.005230 
2535.000000	0.005161 
2534.000000	0.005089 
2533.000000	0.005064 
2532.000000	0.005076 
2531.000000	0.005081 
2530.000000	0.005060 
2529.000000	0.005042 
2528.000000	0.005059 
2527.000000	0.005110 
2526.000000	0.005158 
2525.000000	0.005164 
2524.000000	0.005128 
2523.000000	0.005085 
2522.000000	0.005074 
2521.000000	0.005098 
2520.000000	0.005123 
2519.000000	0.005119 
2518.000000	0.005104 
2517.000000	0.005125 
2516.000000	0.005191 
2515.000000	0.005259 
2514.000000	0.005278 
2513.000000	0.005241 
2512.000000	0.005195 
2511.000000	0.005186 
2510.000000	0.005221 
2509.000000	0.005272 
2508.000000	0.005311 
2507.000000	0.005349 
2506.000000	0.005411 
2505.000000	0.005501 
2504.000000	0.005579 
2503.000000	0.005616 
2502.000000	0.005632 
2501.000000	0.005679 
2500.000000	0.005762 
2499.000000	0.005829 
2498.000000	0.005827 
2497.000000	0.005759 
2496.000000	0.005671 
2495.000000	0.005596 
2494.000000	0.005543 
2493.000000	0.005522 
2492.000000	0.005552 
2491.000000	0.005634 
2490.000000	0.005730 
2489.000000	0.005791 
2488.000000	0.005796 
2487.000000	0.005767 
2486.000000	0.005745 
2485.000000	0.005747 
2484.000000	0.005761 
2483.000000	0.005767 
2482.000000	0.005762 
2481.000000	0.005768 
2480.000000	0.005807 
2479.000000	0.005886 
2478.000000	0.005985 
2477.000000	0.006067 
2476.000000	0.006100 
2475.000000	0.006075 
2474.000000	0.006017 
2473.000000	0.005972 
2472.000000	0.005975 
2471.000000	0.006022 
2470.000000	0.006073 
2469.000000	0.006097 
2468.000000	0.006098 
2467.000000	0.006108 
2466.000000	0.006145 
2465.000000	0.006201 
2464.000000	0.006259 
2463.000000	0.006318 
2462.000000	0.006383 
2461.000000	0.006448 
2460.000000	0.006499 
2459.000000	0.006526 
2458.000000	0.006532 
2457.000000	0.006528 
2456.000000	0.006526 
2455.000000	0.006541 
2454.000000	0.006576 
2453.000000	0.006619 
2452.000000	0.006652 
2451.000000	0.006681 
2450.000000	0.006715 
2449.000000	0.006746 
2448.000000	0.006746 
2447.000000	0.006712 
2446.000000	0.006678 
2445.000000	0.006683 
2444.000000	0.006726 
2443.000000	0.006779 
2442.000000	0.006816 
2441.000000	0.006830 
2440.000000	0.006831 
2439.000000	0.006846 
2438.000000	0.006907 
2437.000000	0.007016 
2436.000000	0.007138 
2435.000000	0.007237 
2434.000000	0.007308 
2433.000000	0.007353 
2432.000000	0.007358 
2431.000000	0.007315 
2430.000000	0.007257 
2429.000000	0.007230 
2428.000000	0.007240 
2427.000000	0.007246 
2426.000000	0.007226 
2425.000000	0.007209 
2424.000000	0.007224 
2423.000000	0.007260 
2422.000000	0.007291 
2421.000000	0.007313 
2420.000000	0.007340 
2419.000000	0.007370 
2418.000000	0.007384 
2417.000000	0.007382 
2416.000000	0.007389 
2415.000000	0.007422 
2414.000000	0.007460 
2413.000000	0.007464 
2412.000000	0.007420 
2411.000000	0.007362 
2410.000000	0.007342 
2409.000000	0.007390 
2408.000000	0.007480 
2407.000000	0.007563 
2406.000000	0.007608 
2405.000000	0.007629 
2404.000000	0.007651 
2403.000000	0.007684 
2402.000000	0.007718 
2401.000000	0.007746 
2400.000000	0.007776 
2399.000000	0.007814 
2398.000000	0.007863 
2397.000000	0.007924 
2396.000000	0.008002 
2395.000000	0.008091 
2394.000000	0.008168 
2393.000000	0.008206 
2392.000000	0.008190 
2391.000000	0.008131 
2390.000000	0.008058 
2389.000000	0.008014 
2388.000000	0.008035 
2387.000000	0.008124 
2386.000000	0.008248 
2385.000000	0.008347 
2384.000000	0.008382 
2383.000000	0.008366 
2382.000000	0.008346 
2381.000000	0.008358 
2380.000000	0.008397 
2379.000000	0.008435 
2378.000000	0.008453 
2377.000000	0.008456 
2376.000000	0.008464 
2375.000000	0.008494 
2374.000000	0.008556 
2373.000000	0.008639 
2372.000000	0.008715 
2371.000000	0.008762 
2370.000000	0.008776 
2369.000000	0.008774 
2368.000000	0.008775 
2367.000000	0.008791 
2366.000000	0.008830 
2365.000000	0.008887 
2364.000000	0.008938 
2363.000000	0.008974 
2362.000000	0.008993 
2361.000000	0.009003 
2360.000000	0.009014 
2359.000000	0.009021 
2358.000000	0.009033 
2357.000000	0.009057 
2356.000000	0.009097 
2355.000000	0.009162 
2354.000000	0.009251 
2353.000000	0.009340 
2352.000000	0.009382 
2351.000000	0.009368 
2350.000000	0.009352 
2349.000000	0.009377 
2348.000000	0.009447 
2347.000000	0.009512 
2346.000000	0.009541 
2345.000000	0.009541 
2344.000000	0.009546 
2343.000000	0.009580 
2342.000000	0.009624 
2341.000000	0.009670 
2340.000000	0.009715 
2339.000000	0.009764 
2338.000000	0.009816 
2337.000000	0.009876 
2336.000000	0.009935 
2335.000000	0.009980 
2334.000000	0.010001 
2333.000000	0.010010 
2332.000000	0.010015 
2331.000000	0.010023 
2330.000000	0.010039 
2329.000000	0.010064 
2328.000000	0.010113 
2327.000000	0.010183 
2326.000000	0.010262 
2325.000000	0.010320 
2324.000000	0.010341 
2323.000000	0.010352 
2322.000000	0.010392 
2321.000000	0.010486 
2320.000000	0.010596 
2319.000000	0.010670 
2318.000000	0.010686 
2317.000000	0.010685 
2316.000000	0.010717 
2315.000000	0.010799 
2314.000000	0.010908 
2313.000000	0.011013 
2312.000000	0.011093 
2311.000000	0.011125 
2310.000000	0.011099 
2309.000000	0.011039 
2308.000000	0.011005 
2307.000000	0.011046 
2306.000000	0.011161 
2305.000000	0.011293 
2304.000000	0.011376 
2303.000000	0.011386 
2302.000000	0.011347 
2301.000000	0.011315 
2300.000000	0.011334 
2299.000000	0.011409 
2298.000000	0.011507 
2297.000000	0.011586 
2296.000000	0.011624 
2295.000000	0.011631 
2294.000000	0.011632 
2293.000000	0.011640 
2292.000000	0.011645 
2291.000000	0.011631 
2290.000000	0.011608 
2289.000000	0.011614 
2288.000000	0.011684 
2287.000000	0.011814 
2286.000000	0.011959 
2285.000000	0.012075 
2284.000000	0.012145 
2283.000000	0.012173 
2282.000000	0.012163 
2281.000000	0.012129 
2280.000000	0.012118 
2279.000000	0.012182 
2278.000000	0.012319 
2277.000000	0.012454 
2276.000000	0.012506 
2275.000000	0.012467 
2274.000000	0.012407 
2273.000000	0.012400 
2272.000000	0.012452 
2271.000000	0.012518 
2270.000000	0.012558 
2269.000000	0.012579 
2268.000000	0.012616 
2267.000000	0.012690 
2266.000000	0.012786 
2265.000000	0.012862 
2264.000000	0.012894 
2263.000000	0.012895 
2262.000000	0.012890 
2261.000000	0.012896 
2260.000000	0.012916 
2259.000000	0.012964 
2258.000000	0.013062 
2257.000000	0.013219 
2256.000000	0.013417 
2255.000000	0.013626 
2254.000000	0.013803 
2253.000000	0.013900 
2252.000000	0.013899 
2251.000000	0.013847 
2250.000000	0.013835 
2249.000000	0.013915 
2248.000000	0.014060 
2247.000000	0.014201 
2246.000000	0.014292 
2245.000000	0.014321 
2244.000000	0.014297 
2243.000000	0.014240 
2242.000000	0.014182 
2241.000000	0.014147 
2240.000000	0.014138 
2239.000000	0.014169 
2238.000000	0.014276 
2237.000000	0.014460 
2236.000000	0.014651 
2235.000000	0.014750 
2234.000000	0.014730 
2233.000000	0.014665 
2232.000000	0.014646 
2231.000000	0.014681 
2230.000000	0.014702 
2229.000000	0.014667 
2228.000000	0.014632 
2227.000000	0.014709 
2226.000000	0.014940 
2225.000000	0.015227 
2224.000000	0.015417 
2223.000000	0.015447 
2222.000000	0.015377 
2221.000000	0.015298 
2220.000000	0.015251 
2219.000000	0.015245 
2218.000000	0.015291 
2217.000000	0.015392 
2216.000000	0.015518 
2215.000000	0.015631 
2214.000000	0.015710 
2213.000000	0.015731 
2212.000000	0.015682 
2211.000000	0.015615 
2210.000000	0.015644 
2209.000000	0.015814 
2208.000000	0.016009 
2207.000000	0.016068 
2206.000000	0.015969 
2205.000000	0.015836 
2204.000000	0.015778 
2203.000000	0.015797 
2202.000000	0.015860 
2201.000000	0.015980 
2200.000000	0.016175 
2199.000000	0.016404 
2198.000000	0.016579 
2197.000000	0.016630 
2196.000000	0.016541 
2195.000000	0.016356 
2194.000000	0.016173 
2193.000000	0.016095 
2192.000000	0.016157 
2191.000000	0.016319 
2190.000000	0.016527 
2189.000000	0.016738 
2188.000000	0.016887 
2187.000000	0.016920 
2186.000000	0.016878 
2185.000000	0.016877 
2184.000000	0.016958 
2183.000000	0.017014 
2182.000000	0.016946 
2181.000000	0.016832 
2180.000000	0.016849 
2179.000000	0.017049 
2178.000000	0.017293 
2177.000000	0.017428 
2176.000000	0.017435 
2175.000000	0.017397 
2174.000000	0.017369 
2173.000000	0.017358 
2172.000000	0.017359 
2171.000000	0.017376 
2170.000000	0.017400 
2169.000000	0.017413 
2168.000000	0.017429 
2167.000000	0.017487 
2166.000000	0.017601 
2165.000000	0.017735 
2164.000000	0.017845 
2163.000000	0.017921 
2162.000000	0.017963 
2161.000000	0.017932 
2160.000000	0.017790 
2159.000000	0.017598 
2158.000000	0.017504 
2157.000000	0.017577 
2156.000000	0.017715 
2155.000000	0.017772 
2154.000000	0.017728 
2153.000000	0.017691 
2152.000000	0.017751 
2151.000000	0.017860 
2150.000000	0.017895 
2149.000000	0.017799 
2148.000000	0.017655 
2147.000000	0.017613 
2146.000000	0.017763 
2145.000000	0.018054 
2144.000000	0.018339 
2143.000000	0.018490 
2142.000000	0.018486 
2141.000000	0.018411 
2140.000000	0.018357 
2139.000000	0.018352 
2138.000000	0.018370 
2137.000000	0.018398 
2136.000000	0.018454 
2135.000000	0.018534 
2134.000000	0.018578 
2133.000000	0.018517 
2132.000000	0.018364 
2131.000000	0.018216 
2130.000000	0.018181 
2129.000000	0.018297 
2128.000000	0.018523 
2127.000000	0.018785 
2126.000000	0.019004 
2125.000000	0.019105 
2124.000000	0.019066 
2123.000000	0.018948 
2122.000000	0.018850 
2121.000000	0.018808 
2120.000000	0.018759 
2119.000000	0.018642 
2118.000000	0.018492 
2117.000000	0.018416 
2116.000000	0.018478 
2115.000000	0.018633 
2114.000000	0.018775 
2113.000000	0.018823 
2112.000000	0.018767 
2111.000000	0.018654 
2110.000000	0.018545 
2109.000000	0.018474 
2108.000000	0.018433 
2107.000000	0.018403 
2106.000000	0.018382 
2105.000000	0.018400 
2104.000000	0.018484 
2103.000000	0.018615 
2102.000000	0.018709 
2101.000000	0.018671 
2100.000000	0.018477 
2099.000000	0.018210 
2098.000000	0.017990 
2097.000000	0.017886 
2096.000000	0.017887 
2095.000000	0.017969 
2094.000000	0.018112 
2093.000000	0.018263 
2092.000000	0.018337 
2091.000000	0.018289 
2090.000000	0.018164 
2089.000000	0.018052 
2088.000000	0.017998 
2087.000000	0.017981 
2086.000000	0.017958 
2085.000000	0.017895 
2084.000000	0.017782 
2083.000000	0.017649 
2082.000000	0.017566 
2081.000000	0.017588 
2080.000000	0.017709 
2079.000000	0.017866 
2078.000000	0.017999 
2077.000000	0.018070 
2076.000000	0.018054 
2075.000000	0.017958 
2074.000000	0.017825 
2073.000000	0.017709 
2072.000000	0.017624 
2071.000000	0.017556 
2070.000000	0.017489 
2069.000000	0.017407 
2068.000000	0.017279 
2067.000000	0.017100 
2066.000000	0.016926 
2065.000000	0.016810 
2064.000000	0.016729 
2063.000000	0.016629 
2062.000000	0.016528 
2061.000000	0.016504 
2060.000000	0.016558 
2059.000000	0.016592 
2058.000000	0.016546 
2057.000000	0.016493 
2056.000000	0.016549 
2055.000000	0.016715 
2054.000000	0.016873 
2053.000000	0.016910 
2052.000000	0.016797 
2051.000000	0.016576 
2050.000000	0.016326 
2049.000000	0.016128 
2048.000000	0.016029 
2047.000000	0.016004 
2046.000000	0.015987 
2045.000000	0.015921 
2044.000000	0.015791 
2043.000000	0.015635 
2042.000000	0.015524 
2041.000000	0.015495 
2040.000000	0.015487 
2039.000000	0.015390 
2038.000000	0.015188 
2037.000000	0.014985 
2036.000000	0.014871 
2035.000000	0.014813 
2034.000000	0.014747 
2033.000000	0.014717 
2032.000000	0.014823 
2031.000000	0.015042 
2030.000000	0.015192 
2029.000000	0.015128 
2028.000000	0.014915 
2027.000000	0.014748 
2026.000000	0.014741 
2025.000000	0.014809 
2024.000000	0.014782 
2023.000000	0.014578 
2022.000000	0.014274 
2021.000000	0.014010 
2020.000000	0.013865 
2019.000000	0.013828 
2018.000000	0.013861 
2017.000000	0.013940 
2016.000000	0.014046 
2015.000000	0.014151 
2014.000000	0.014224 
2013.000000	0.014260 
2012.000000	0.014270 
2011.000000	0.014278 
2010.000000	0.014293 
2009.000000	0.014284 
2008.000000	0.014194 
2007.000000	0.013986 
2006.000000	0.013697 
2005.000000	0.013415 
2004.000000	0.013219 
2003.000000	0.013151 
2002.000000	0.013221 
2001.000000	0.013387 
2000.000000	0.013557 
1999.000000	0.013645 
1998.000000	0.013660 
1997.000000	0.013694 
1996.000000	0.013811 
1995.000000	0.013960 
1994.000000	0.014014 
1993.000000	0.013888 
1992.000000	0.013608 
1991.000000	0.013298 
1990.000000	0.013094 
1989.000000	0.013041 
1988.000000	0.013057 
1987.000000	0.013002 
1986.000000	0.012805 
1985.000000	0.012534 
1984.000000	0.012330 
1983.000000	0.012284 
1982.000000	0.012372 
1981.000000	0.012490 
1980.000000	0.012534 
1979.000000	0.012473 
1978.000000	0.012367 
1977.000000	0.012304 
1976.000000	0.012328 
1975.000000	0.012422 
1974.000000	0.012557 
1973.000000	0.012708 
1972.000000	0.012843 
1971.000000	0.012915 
1970.000000	0.012886 
1969.000000	0.012755 
1968.000000	0.012578 
1967.000000	0.012441 
1966.000000	0.012402 
1965.000000	0.012428 
1964.000000	0.012415 
1963.000000	0.012296 
1962.000000	0.012116 
1961.000000	0.011979 
1960.000000	0.011938 
1959.000000	0.011954 
1958.000000	0.011960 
1957.000000	0.011944 
1956.000000	0.011955 
1955.000000	0.012052 
1954.000000	0.012241 
1953.000000	0.012438 
1952.000000	0.012509 
1951.000000	0.012382 
1950.000000	0.012110 
1949.000000	0.011820 
1948.000000	0.011603 
1947.000000	0.011474 
1946.000000	0.011405 
1945.000000	0.011370 
1944.000000	0.011343 
1943.000000	0.011310 
1942.000000	0.011277 
1941.000000	0.011261 
1940.000000	0.011268 
1939.000000	0.011290 
1938.000000	0.011334 
1937.000000	0.011413 
1936.000000	0.011503 
1935.000000	0.011545 
1934.000000	0.011508 
1933.000000	0.011427 
1932.000000	0.011375 
1931.000000	0.011389 
1930.000000	0.011440 
1929.000000	0.011464 
1928.000000	0.011418 
1927.000000	0.011316 
1926.000000	0.011213 
1925.000000	0.011152 
1924.000000	0.011127 
1923.000000	0.011098 
1922.000000	0.011042 
1921.000000	0.010980 
1920.000000	0.010939 
1919.000000	0.010911 
1918.000000	0.010860 
1917.000000	0.010770 
1916.000000	0.010681 
1915.000000	0.010653 
1914.000000	0.010713 
1913.000000	0.010827 
1912.000000	0.010940 
1911.000000	0.011014 
1910.000000	0.011041 
1909.000000	0.011029 
1908.000000	0.011000 
1907.000000	0.010994 
1906.000000	0.011047 
1905.000000	0.011140 
1904.000000	0.011212 
1903.000000	0.011225 
1902.000000	0.011196 
1901.000000	0.011153 
1900.000000	0.011095 
1899.000000	0.011015 
1898.000000	0.010936 
1897.000000	0.010891 
1896.000000	0.010875 
1895.000000	0.010860 
1894.000000	0.010850 
1893.000000	0.010869 
1892.000000	0.010920 
1891.000000	0.010978 
1890.000000	0.011032 
1889.000000	0.011092 
1888.000000	0.011150 
1887.000000	0.011167 
1886.000000	0.011123 
1885.000000	0.011043 
1884.000000	0.010968 
1883.000000	0.010910 
1882.000000	0.010859 
1881.000000	0.010819 
1880.000000	0.010804 
1879.000000	0.010816 
1878.000000	0.010860 
1877.000000	0.010946 
1876.000000	0.011071 
1875.000000	0.011187 
1874.000000	0.011231 
1873.000000	0.011182 
1872.000000	0.011090 
1871.000000	0.011024 
1870.000000	0.011013 
1869.000000	0.011028 
1868.000000	0.011031 
1867.000000	0.011011 
1866.000000	0.010971 
1865.000000	0.010908 
1864.000000	0.010821 
1863.000000	0.010744 
1862.000000	0.010730 
1861.000000	0.010795 
1860.000000	0.010901 
1859.000000	0.010993 
1858.000000	0.011047 
1857.000000	0.011073 
1856.000000	0.011075 
1855.000000	0.011048 
1854.000000	0.011004 
1853.000000	0.010973 
1852.000000	0.010981 
1851.000000	0.011025 
1850.000000	0.011082 
1849.000000	0.011115 
1848.000000	0.011092 
1847.000000	0.011026 
1846.000000	0.010981 
1845.000000	0.011022 
1844.000000	0.011137 
1843.000000	0.011257 
1842.000000	0.011335 
1841.000000	0.011367 
1840.000000	0.011373 
1839.000000	0.011374 
1838.000000	0.011381 
1837.000000	0.011399 
1836.000000	0.011422 
1835.000000	0.011424 
1834.000000	0.011396 
1833.000000	0.011362 
1832.000000	0.011376 
1831.000000	0.011467 
1830.000000	0.011610 
1829.000000	0.011734 
1828.000000	0.011788 
1827.000000	0.011778 
1826.000000	0.011754 
1825.000000	0.011755 
1824.000000	0.011789 
1823.000000	0.011849 
1822.000000	0.011933 
1821.000000	0.012026 
1820.000000	0.012094 
1819.000000	0.012119 
1818.000000	0.012122 
1817.000000	0.012141 
1816.000000	0.012187 
1815.000000	0.012242 
1814.000000	0.012287 
1813.000000	0.012323 
1812.000000	0.012359 
1811.000000	0.012411 
1810.000000	0.012484 
1809.000000	0.012568 
1808.000000	0.012637 
1807.000000	0.012672 
1806.000000	0.012692 
1805.000000	0.012737 
1804.000000	0.012828 
1803.000000	0.012945 
1802.000000	0.013055 
1801.000000	0.013135 
1800.000000	0.013181 
1799.000000	0.013210 
1798.000000	0.013249 
1797.000000	0.013309 
1796.000000	0.013374 
1795.000000	0.013432 
1794.000000	0.013518 
1793.000000	0.013671 
1792.000000	0.013871 
1791.000000	0.014050 
1790.000000	0.014163 
1789.000000	0.014216 
1788.000000	0.014243 
1787.000000	0.014275 
1786.000000	0.014332 
1785.000000	0.014430 
1784.000000	0.014568 
1783.000000	0.014727 
1782.000000	0.014896 
1781.000000	0.015074 
1780.000000	0.015240 
1779.000000	0.015364 
1778.000000	0.015436 
1777.000000	0.015470 
1776.000000	0.015486 
1775.000000	0.015517 
1774.000000	0.015624 
1773.000000	0.015851 
1772.000000	0.016135 
1771.000000	0.016364 
1770.000000	0.016485 
1769.000000	0.016555 
1768.000000	0.016676 
1767.000000	0.016884 
1766.000000	0.017121 
1765.000000	0.017317 
1764.000000	0.017476 
1763.000000	0.017663 
1762.000000	0.017913 
1761.000000	0.018186 
1760.000000	0.018417 
1759.000000	0.018590 
1758.000000	0.018751 
1757.000000	0.018956 
1756.000000	0.019193 
1755.000000	0.019409 
1754.000000	0.019577 
1753.000000	0.019742 
1752.000000	0.019971 
1751.000000	0.020295 
1750.000000	0.020683 
1749.000000	0.021079 
1748.000000	0.021441 
1747.000000	0.021758 
1746.000000	0.022065 
1745.000000	0.022394 
1744.000000	0.022735 
1743.000000	0.023060 
1742.000000	0.023357 
1741.000000	0.023655 
1740.000000	0.023984 
1739.000000	0.024327 
1738.000000	0.024632 
1737.000000	0.024880 
1736.000000	0.025153 
1735.000000	0.025580 
1734.000000	0.026178 
1733.000000	0.026851 
1732.000000	0.027492 
1731.000000	0.028046 
1730.000000	0.028536 
1729.000000	0.029033 
1728.000000	0.029576 
1727.000000	0.030149 
1726.000000	0.030724 
1725.000000	0.031290 
1724.000000	0.031861 
1723.000000	0.032469 
1722.000000	0.033123 
1721.000000	0.033782 
1720.000000	0.034411 
1719.000000	0.035050 
1718.000000	0.035783 
1717.000000	0.036644 
1716.000000	0.037580 
1715.000000	0.038502 
1714.000000	0.039371 
1713.000000	0.040205 
1712.000000	0.041039 
1711.000000	0.041887 
1710.000000	0.042770 
1709.000000	0.043717 
1708.000000	0.044740 
1707.000000	0.045824 
1706.000000	0.046950 
1705.000000	0.048072 
1704.000000	0.049117 
1703.000000	0.050071 
1702.000000	0.051084 
1701.000000	0.052304 
1700.000000	0.053635 
1699.000000	0.054880 
1698.000000	0.056003 
1697.000000	0.057142 
1696.000000	0.058463 
1695.000000	0.059941 
1694.000000	0.061432 
1693.000000	0.062850 
1692.000000	0.064220 
1691.000000	0.065619 
1690.000000	0.067067 
1689.000000	0.068505 
1688.000000	0.069863 
1687.000000	0.071173 
1686.000000	0.072597 
1685.000000	0.074265 
1684.000000	0.076081 
1683.000000	0.077848 
1682.000000	0.079496 
1681.000000	0.081070 
1680.000000	0.082627 
1679.000000	0.084185 
1678.000000	0.085746 
1677.000000	0.087349 
1676.000000	0.089039 
1675.000000	0.090784 
1674.000000	0.092513 
1673.000000	0.094185 
1672.000000	0.095803 
1671.000000	0.097413 
1670.000000	0.099057 
1669.000000	0.100739 
1668.000000	0.102435 
1667.000000	0.104123 
1666.000000	0.105791 
1665.000000	0.107458 
1664.000000	0.109143 
1663.000000	0.110823 
1662.000000	0.112445 
1661.000000	0.113990 
1660.000000	0.115489 
1659.000000	0.116984 
1658.000000	0.118473 
1657.000000	0.119868 
1656.000000	0.121088 
1655.000000	0.122238 
1654.000000	0.123544 
1653.000000	0.125025 
1652.000000	0.126555 
1651.000000	0.128044 
1650.000000	0.129369 
1649.000000	0.130495 
1648.000000	0.131514 
1647.000000	0.132479 
1646.000000	0.133366 
1645.000000	0.134165 
1644.000000	0.134880 
1643.000000	0.135484 
1642.000000	0.135970 
1641.000000	0.136370 
1640.000000	0.136673 
1639.000000	0.136821 
1638.000000	0.136803 
1637.000000	0.136698 
1636.000000	0.136562 
1635.000000	0.136337 
1634.000000	0.135946 
1633.000000	0.135364 
1632.000000	0.134607 
1631.000000	0.133726 
1630.000000	0.132765 
1629.000000	0.131721 
1628.000000	0.130554 
1627.000000	0.129233 
1626.000000	0.127775 
1625.000000	0.126233 
1624.000000	0.124648 
1623.000000	0.123020 
1622.000000	0.121314 
1621.000000	0.119496 
1620.000000	0.117546 
1619.000000	0.115508 
1618.000000	0.113496 
1617.000000	0.111596 
1616.000000	0.109784 
1615.000000	0.107979 
1614.000000	0.106111 
1613.000000	0.104175 
1612.000000	0.102222 
1611.000000	0.100299 
1610.000000	0.098410 
1609.000000	0.096545 
1608.000000	0.094698 
1607.000000	0.092877 
1606.000000	0.091093 
1605.000000	0.089368 
1604.000000	0.087721 
1603.000000	0.086158 
1602.000000	0.084661 
1601.000000	0.083200 
1600.000000	0.081756 
1599.000000	0.080329 
1598.000000	0.078930 
1597.000000	0.077572 
1596.000000	0.076259 
1595.000000	0.074989 
1594.000000	0.073762 
1593.000000	0.072583 
1592.000000	0.071460 
1591.000000	0.070398 
1590.000000	0.069390 
1589.000000	0.068421 
1588.000000	0.067471 
1587.000000	0.066526 
1586.000000	0.065585 
1585.000000	0.064661 
1584.000000	0.063773 
1583.000000	0.062935 
1582.000000	0.062154 
1581.000000	0.061411 
1580.000000	0.060645 
1579.000000	0.059811 
1578.000000	0.058971 
1577.000000	0.058256 
1576.000000	0.057715 
1575.000000	0.057266 
1574.000000	0.056784 
1573.000000	0.056214 
1572.000000	0.055610 
1571.000000	0.055059 
1570.000000	0.054566 
1569.000000	0.054065 
1568.000000	0.053538 
1567.000000	0.053025 
1566.000000	0.052555 
1565.000000	0.052106 
1564.000000	0.051612 
1563.000000	0.051020 
1562.000000	0.050376 
1561.000000	0.049859 
1560.000000	0.049606 
1559.000000	0.049493 
1558.000000	0.049308 
1557.000000	0.049014 
1556.000000	0.048672 
1555.000000	0.048318 
1554.000000	0.047999 
1553.000000	0.047723 
1552.000000	0.047459 
1551.000000	0.047183 
1550.000000	0.046892 
1549.000000	0.046585 
1548.000000	0.046266 
1547.000000	0.045950 
1546.000000	0.045661 
1545.000000	0.045413 
1544.000000	0.045191 
1543.000000	0.044964 
1542.000000	0.044719 
1541.000000	0.044478 
1540.000000	0.044278 
1539.000000	0.044134 
1538.000000	0.044043 
1537.000000	0.043948 
1536.000000	0.043796 
1535.000000	0.043621 
1534.000000	0.043461 
1533.000000	0.043281 
1532.000000	0.043045 
1531.000000	0.042786 
1530.000000	0.042550 
1529.000000	0.042343 
1528.000000	0.042148 
1527.000000	0.041976 
1526.000000	0.041840 
1525.000000	0.041717 
1524.000000	0.041559 
1523.000000	0.041374 
1522.000000	0.041230 
1521.000000	0.041170 
1520.000000	0.041162 
1519.000000	0.041144 
1518.000000	0.041080 
1517.000000	0.040973 
1516.000000	0.040840 
1515.000000	0.040684 
1514.000000	0.040522 
1513.000000	0.040391 
1512.000000	0.040302 
1511.000000	0.040210 
1510.000000	0.040048 
1509.000000	0.039830 
1508.000000	0.039654 
1507.000000	0.039592 
1506.000000	0.039570 
1505.000000	0.039541 
1504.000000	0.039518 
1503.000000	0.039457 
1502.000000	0.039345 
1501.000000	0.039222 
1500.000000	0.039114 
1499.000000	0.039014 
1498.000000	0.038915 
1497.000000	0.038831 
1496.000000	0.038773 
1495.000000	0.038729 
1494.000000	0.038680 
1493.000000	0.038636 
1492.000000	0.038631 
1491.000000	0.038661 
1490.000000	0.038668 
1489.000000	0.038609 
1488.000000	0.038509 
1487.000000	0.038428 
1486.000000	0.038392 
1485.000000	0.038385 
1484.000000	0.038380 
1483.000000	0.038360 
1482.000000	0.038334 
1481.000000	0.038317 
1480.000000	0.038309 
1479.000000	0.038293 
1478.000000	0.038249 
1477.000000	0.038175 
1476.000000	0.038083 
1475.000000	0.037997 
1474.000000	0.037943 
1473.000000	0.037924 
1472.000000	0.037905 
1471.000000	0.037863 
1470.000000	0.037798 
1469.000000	0.037721 
1468.000000	0.037659 
1467.000000	0.037642 
1466.000000	0.037678 
1465.000000	0.037735 
1464.000000	0.037760 
1463.000000	0.037734 
1462.000000	0.037668 
1461.000000	0.037570 
1460.000000	0.037449 
1459.000000	0.037346 
1458.000000	0.037324 
1457.000000	0.037389 
1456.000000	0.037501 
1455.000000	0.037629 
1454.000000	0.037753 
1453.000000	0.037860 
1452.000000	0.037971 
1451.000000	0.038102 
1450.000000	0.038274 
1449.000000	0.038525 
1448.000000	0.038892 
1447.000000	0.039365 
1446.000000	0.039919 
1445.000000	0.040567 
1444.000000	0.041348 
1443.000000	0.042295 
1442.000000	0.043367 
1441.000000	0.044429 
1440.000000	0.045288 
1439.000000	0.045791 
1438.000000	0.045898 
1437.000000	0.045655 
1436.000000	0.045147 
1435.000000	0.044475 
1434.000000	0.043737 
1433.000000	0.043029 
1432.000000	0.042451 
1431.000000	0.042060 
1430.000000	0.041834 
1429.000000	0.041721 
1428.000000	0.041706 
1427.000000	0.041812 
1426.000000	0.042057 
1425.000000	0.042425 
1424.000000	0.042844 
1423.000000	0.043208 
1422.000000	0.043425 
1421.000000	0.043487 
1420.000000	0.043457 
1419.000000	0.043392 
1418.000000	0.043302 
1417.000000	0.043170 
1416.000000	0.043004 
1415.000000	0.042855 
1414.000000	0.042801 
1413.000000	0.042893 
1412.000000	0.043148 
1411.000000	0.043541 
1410.000000	0.044001 
1409.000000	0.044402 
1408.000000	0.044605 
1407.000000	0.044506 
1406.000000	0.044087 
1405.000000	0.043409 
1404.000000	0.042589 
1403.000000	0.041749 
1402.000000	0.040984 
1401.000000	0.040349 
1400.000000	0.039860 
1399.000000	0.039498 
1398.000000	0.039218 
1397.000000	0.038976 
1396.000000	0.038751 
1395.000000	0.038549 
1394.000000	0.038377 
1393.000000	0.038237 
1392.000000	0.038120 
1391.000000	0.038007 
1390.000000	0.037888 
1389.000000	0.037780 
1388.000000	0.037703 
1387.000000	0.037660 
1386.000000	0.037629 
1385.000000	0.037594 
1384.000000	0.037559 
1383.000000	0.037541 
1382.000000	0.037539 
1381.000000	0.037532 
1380.000000	0.037497 
1379.000000	0.037436 
1378.000000	0.037367 
1377.000000	0.037309 
1376.000000	0.037271 
1375.000000	0.037255 
1374.000000	0.037252 
1373.000000	0.037250 
1372.000000	0.037253 
1371.000000	0.037266 
1370.000000	0.037285 
1369.000000	0.037289 
1368.000000	0.037264 
1367.000000	0.037220 
1366.000000	0.037181 
1365.000000	0.037164 
1364.000000	0.037166 
1363.000000	0.037184 
1362.000000	0.037211 
1361.000000	0.037231 
1360.000000	0.037231 
1359.000000	0.037215 
1358.000000	0.037213 
1357.000000	0.037250 
1356.000000	0.037321 
1355.000000	0.037397 
1354.000000	0.037459 
1353.000000	0.037514 
1352.000000	0.037569 
1351.000000	0.037609 
1350.000000	0.037605 
1349.000000	0.037550 
1348.000000	0.037467 
1347.000000	0.037396 
1346.000000	0.037354 
1345.000000	0.037332 
1344.000000	0.037316 
1343.000000	0.037310 
1342.000000	0.037330 
1341.000000	0.037375 
1340.000000	0.037413 
1339.000000	0.037418 
1338.000000	0.037400 
1337.000000	0.037396 
1336.000000	0.037428 
1335.000000	0.037481 
1334.000000	0.037539 
1333.000000	0.037614 
1332.000000	0.037731 
1331.000000	0.037892 
1330.000000	0.038078 
1329.000000	0.038288 
1328.000000	0.038559 
1327.000000	0.038937 
1326.000000	0.039439 
1325.000000	0.040045 
1324.000000	0.040708 
1323.000000	0.041350 
1322.000000	0.041863 
1321.000000	0.042126 
1320.000000	0.042072 
1319.000000	0.041722 
1318.000000	0.041171 
1317.000000	0.040533 
1316.000000	0.039899 
1315.000000	0.039331 
1314.000000	0.038872 
1313.000000	0.038528 
1312.000000	0.038277 
1311.000000	0.038090 
1310.000000	0.037960 
1309.000000	0.037888 
1308.000000	0.037866 
1307.000000	0.037869 
1306.000000	0.037884 
1305.000000	0.037909 
1304.000000	0.037934 
1303.000000	0.037937 
1302.000000	0.037907 
1301.000000	0.037857 
1300.000000	0.037798 
1299.000000	0.037723 
1298.000000	0.037617 
1297.000000	0.037495 
1296.000000	0.037392 
1295.000000	0.037332 
1294.000000	0.037308 
1293.000000	0.037295 
1292.000000	0.037269 
1291.000000	0.037225 
1290.000000	0.037176 
1289.000000	0.037141 
1288.000000	0.037131 
1287.000000	0.037138 
1286.000000	0.037144 
1285.000000	0.037148 
1284.000000	0.037159 
1283.000000	0.037173 
1282.000000	0.037173 
1281.000000	0.037146 
1280.000000	0.037096 
1279.000000	0.037040 
1278.000000	0.036993 
1277.000000	0.036962 
1276.000000	0.036946 
1275.000000	0.036940 
1274.000000	0.036935 
1273.000000	0.036935 
1272.000000	0.036950 
1271.000000	0.036972 
1270.000000	0.036982 
1269.000000	0.036970 
1268.000000	0.036960 
1267.000000	0.036985 
1266.000000	0.037043 
1265.000000	0.037091 
1264.000000	0.037086 
1263.000000	0.037034 
1262.000000	0.036979 
1261.000000	0.036956 
1260.000000	0.036967 
1259.000000	0.036988 
1258.000000	0.036999 
1257.000000	0.036983 
1256.000000	0.036931 
1255.000000	0.036849 
1254.000000	0.036768 
1253.000000	0.036728 
1252.000000	0.036740 
1251.000000	0.036783 
1250.000000	0.036833 
1249.000000	0.036885 
1248.000000	0.036937 
1247.000000	0.036970 
1246.000000	0.036960 
1245.000000	0.036906 
1244.000000	0.036837 
1243.000000	0.036785 
1242.000000	0.036760 
1241.000000	0.036747 
1240.000000	0.036726 
1239.000000	0.036698 
1238.000000	0.036690 
1237.000000	0.036731 
1236.000000	0.036805 
1235.000000	0.036858 
1234.000000	0.036839 
1233.000000	0.036757 
1232.000000	0.036663 
1231.000000	0.036607 
1230.000000	0.036601 
1229.000000	0.036634 
1228.000000	0.036682 
1227.000000	0.036713 
1226.000000	0.036704 
1225.000000	0.036658 
1224.000000	0.036610 
1223.000000	0.036594 
1222.000000	0.036613 
1221.000000	0.036645 
1220.000000	0.036669 
1219.000000	0.036681 
1218.000000	0.036692 
1217.000000	0.036711 
1216.000000	0.036727 
1215.000000	0.036721 
1214.000000	0.036694 
1213.000000	0.036673 
1212.000000	0.036684 
1211.000000	0.036714 
1210.000000	0.036718 
1209.000000	0.036679 
1208.000000	0.036631 
1207.000000	0.036616 
1206.000000	0.036640 
1205.000000	0.036679 
1204.000000	0.036719 
1203.000000	0.036758 
1202.000000	0.036790 
1201.000000	0.036805 
1200.000000	0.036804 
1199.000000	0.036803 
1198.000000	0.036810 
1197.000000	0.036806 
1196.000000	0.036766 
1195.000000	0.036688 
1194.000000	0.036606 
1193.000000	0.036566 
1192.000000	0.036578 
1191.000000	0.036607 
1190.000000	0.036614 
1189.000000	0.036601 
1188.000000	0.036604 
1187.000000	0.036632 
1186.000000	0.036648 
1185.000000	0.036622 
1184.000000	0.036572 
1183.000000	0.036544 
1182.000000	0.036552 
1181.000000	0.036574 
1180.000000	0.036592 
1179.000000	0.036612 
1178.000000	0.036635 
1177.000000	0.036642 
1176.000000	0.036625 
1175.000000	0.036595 
1174.000000	0.036570 
1173.000000	0.036549 
1172.000000	0.036533 
1171.000000	0.036533 
1170.000000	0.036554 
1169.000000	0.036572 
1168.000000	0.036554 
1167.000000	0.036499 
1166.000000	0.036442 
1165.000000	0.036421 
1164.000000	0.036438 
1163.000000	0.036467 
1162.000000	0.036486 
1161.000000	0.036503 
1160.000000	0.036539 
1159.000000	0.036597 
1158.000000	0.036647 
1157.000000	0.036664 
1156.000000	0.036657 
1155.000000	0.036654 
1154.000000	0.036661 
1153.000000	0.036653 
1152.000000	0.036620 
1151.000000	0.036591 
1150.000000	0.036596 
1149.000000	0.036628 
1148.000000	0.036655 
1147.000000	0.036658 
1146.000000	0.036641 
1145.000000	0.036613 
1144.000000	0.036586 
1143.000000	0.036585 
1142.000000	0.036621 
1141.000000	0.036673 
1140.000000	0.036695 
1139.000000	0.036668 
1138.000000	0.036615 
1137.000000	0.036574 
1136.000000	0.036564 
1135.000000	0.036591 
1134.000000	0.036649 
1133.000000	0.036710 
1132.000000	0.036732 
1131.000000	0.036708 
1130.000000	0.036675 
1129.000000	0.036670 
1128.000000	0.036689 
1127.000000	0.036703 
1126.000000	0.036703 
1125.000000	0.036700 
1124.000000	0.036696 
1123.000000	0.036689 
1122.000000	0.036694 
1121.000000	0.036734 
1120.000000	0.036798 
1119.000000	0.036838 
1118.000000	0.036827 
1117.000000	0.036794 
1116.000000	0.036795 
1115.000000	0.036856 
1114.000000	0.036951 
1113.000000	0.037029 
1112.000000	0.037044 
1111.000000	0.036996 
1110.000000	0.036932 
1109.000000	0.036915 
1108.000000	0.036975 
1107.000000	0.037082 
1106.000000	0.037182 
1105.000000	0.037239 
1104.000000	0.037253 
1103.000000	0.037247 
1102.000000	0.037241 
1101.000000	0.037244 
1100.000000	0.037253 
1099.000000	0.037269 
1098.000000	0.037303 
1097.000000	0.037366 
1096.000000	0.037447 
1095.000000	0.037515 
1094.000000	0.037548 
1093.000000	0.037556 
1092.000000	0.037575 
1091.000000	0.037636 
1090.000000	0.037740 
1089.000000	0.037848 
1088.000000	0.037904 
1087.000000	0.037883 
1086.000000	0.037832 
1085.000000	0.037823 
1084.000000	0.037884 
1083.000000	0.037977 
1082.000000	0.038066 
1081.000000	0.038167 
1080.000000	0.038308 
1079.000000	0.038475 
1078.000000	0.038619 
1077.000000	0.038713 
1076.000000	0.038769 
1075.000000	0.038813 
1074.000000	0.038869 
1073.000000	0.038956 
1072.000000	0.039069 
1071.000000	0.039170 
1070.000000	0.039238 
1069.000000	0.039316 
1068.000000	0.039480 
1067.000000	0.039738 
1066.000000	0.040014 
1065.000000	0.040222 
1064.000000	0.040340 
1063.000000	0.040404 
1062.000000	0.040462 
1061.000000	0.040563 
1060.000000	0.040746 
1059.000000	0.041005 
1058.000000	0.041268 
1057.000000	0.041459 
1056.000000	0.041579 
1055.000000	0.041706 
1054.000000	0.041903 
1053.000000	0.042159 
1052.000000	0.042416 
1051.000000	0.042643 
1050.000000	0.042850 
1049.000000	0.043066 
1048.000000	0.043309 
1047.000000	0.043593 
1046.000000	0.043928 
1045.000000	0.044318 
1044.000000	0.044746 
1043.000000	0.045186 
1042.000000	0.045635 
1041.000000	0.046123 
1040.000000	0.046697 
1039.000000	0.047397 
1038.000000	0.048242 
1037.000000	0.049252 
1036.000000	0.050450 
1035.000000	0.051843 
1034.000000	0.053421 
1033.000000	0.055190 
1032.000000	0.057196 
1031.000000	0.059485 
1030.000000	0.062050 
1029.000000	0.064810 
1028.000000	0.067670 
1027.000000	0.070564 
1026.000000	0.073459 
1025.000000	0.076350 
1024.000000	0.079248 
1023.000000	0.082173 
1022.000000	0.085128 
1021.000000	0.088092 
1020.000000	0.091057 
1019.000000	0.094042 
1018.000000	0.097032 
1017.000000	0.099902 
1016.000000	0.102451 
1015.000000	0.104533 
1014.000000	0.106148 
1013.000000	0.107377 
1012.000000	0.108236 
1011.000000	0.108632 
1010.000000	0.108442 
1009.000000	0.107596 
1008.000000	0.106100 
1007.000000	0.104008 
1006.000000	0.101399 
1005.000000	0.098365 
1004.000000	0.095007 
1003.000000	0.091429 
1002.000000	0.087752 
1001.000000	0.084106 
1000.000000	0.080615 
999.000000	 0.077380 
998.000000	 0.074463 
997.000000	 0.071865 
996.000000	 0.069528 
995.000000	 0.067387 
994.000000	 0.065437 
993.000000	 0.063733 
992.000000	 0.062319 
991.000000	 0.061159 
990.000000	 0.060168 
989.000000	 0.059288 
988.000000	 0.058515 
987.000000	 0.057860 
986.000000	 0.057312 
985.000000	 0.056846 
984.000000	 0.056451 
983.000000	 0.056133 
982.000000	 0.055902 
981.000000	 0.055758 
980.000000	 0.055673 
979.000000	 0.055600 
978.000000	 0.055497 
977.000000	 0.055378 
976.000000	 0.055301 
975.000000	 0.055312 
974.000000	 0.055404 
973.000000	 0.055542 
972.000000	 0.055709 
971.000000	 0.055918 
970.000000	 0.056175 
969.000000	 0.056476 
968.000000	 0.056825 
967.000000	 0.057242 
966.000000	 0.057746 
965.000000	 0.058347 
964.000000	 0.059068 
963.000000	 0.059974 
962.000000	 0.061170 
961.000000	 0.062779 
960.000000	 0.064922 
959.000000	 0.067710 
958.000000	 0.071235 
957.000000	 0.075545 
956.000000	 0.080564 
955.000000	 0.086007 
954.000000	 0.091344 
953.000000	 0.095879 
952.000000	 0.098961 
951.000000	 0.100216 
950.000000	 0.099676 
949.000000	 0.097736 
948.000000	 0.094969 
947.000000	 0.091927 
946.000000	 0.089005 
945.000000	 0.086431 
944.000000	 0.084297 
943.000000	 0.082600 
942.000000	 0.081256 
941.000000	 0.080137 
940.000000	 0.079133 
939.000000	 0.078191 
938.000000	 0.077283 
937.000000	 0.076384 
936.000000	 0.075494 
935.000000	 0.074669 
934.000000	 0.073997 
933.000000	 0.073515 
932.000000	 0.073178 
931.000000	 0.072916 
930.000000	 0.072707 
929.000000	 0.072584 
928.000000	 0.072589 
927.000000	 0.072730 
926.000000	 0.072972 
925.000000	 0.073254 
924.000000	 0.073525 
923.000000	 0.073778 
922.000000	 0.074056 
921.000000	 0.074412 
920.000000	 0.074856 
919.000000	 0.075351 
918.000000	 0.075858 
917.000000	 0.076378 
916.000000	 0.076930 
915.000000	 0.077523 
914.000000	 0.078147 
913.000000	 0.078783 
912.000000	 0.079416 
911.000000	 0.080041 
910.000000	 0.080681 
909.000000	 0.081388 
908.000000	 0.082217 
907.000000	 0.083171 
906.000000	 0.084175 
905.000000	 0.085101 
904.000000	 0.085847 
903.000000	 0.086391 
902.000000	 0.086790 
901.000000	 0.087138 
900.000000	 0.087527 
899.000000	 0.088018 
898.000000	 0.088607 
897.000000	 0.089229 
896.000000	 0.089805 
895.000000	 0.090322 
894.000000	 0.090842 
893.000000	 0.091435 
892.000000	 0.092111 
891.000000	 0.092827 
890.000000	 0.093547 
889.000000	 0.094266 
888.000000	 0.094987 
887.000000	 0.095717 
886.000000	 0.096475 
885.000000	 0.097298 
884.000000	 0.098203 
883.000000	 0.099157 
882.000000	 0.100085 
881.000000	 0.100920 
880.000000	 0.101652 
879.000000	 0.102351 
878.000000	 0.103119 
877.000000	 0.104009 
876.000000	 0.104980 
875.000000	 0.105950 
874.000000	 0.106888 
873.000000	 0.107839 
872.000000	 0.108852 
871.000000	 0.109913 
870.000000	 0.110954 
869.000000	 0.111919 
868.000000	 0.112800 
867.000000	 0.113637 
866.000000	 0.114498 
865.000000	 0.115451 
864.000000	 0.116511 
863.000000	 0.117629 
862.000000	 0.118717 
861.000000	 0.119718 
860.000000	 0.120643 
859.000000	 0.121554 
858.000000	 0.122518 
857.000000	 0.123559 
856.000000	 0.124643 
855.000000	 0.125722 
854.000000	 0.126769 
853.000000	 0.127795 
852.000000	 0.128828 
851.000000	 0.129900 
850.000000	 0.131039 
849.000000	 0.132247 
848.000000	 0.133471 
847.000000	 0.134626 
846.000000	 0.135673 
845.000000	 0.136656 
844.000000	 0.137635 
843.000000	 0.138617 
842.000000	 0.139580 
841.000000	 0.140552 
840.000000	 0.141616 
839.000000	 0.142809 
838.000000	 0.144062 
837.000000	 0.145279 
836.000000	 0.146448 
835.000000	 0.147629 
834.000000	 0.148843 
833.000000	 0.150022 
832.000000	 0.151102 
831.000000	 0.152129 
830.000000	 0.153227 
829.000000	 0.154457 
828.000000	 0.155746 
827.000000	 0.156974 
826.000000	 0.158120 
825.000000	 0.159281 
824.000000	 0.160556 
823.000000	 0.161938 
822.000000	 0.163325 
821.000000	 0.164611 
820.000000	 0.165774 
819.000000	 0.166873 
818.000000	 0.167996 
817.000000	 0.169190 
816.000000	 0.170444 
815.000000	 0.171719 
814.000000	 0.172984 
813.000000	 0.174222 
812.000000	 0.175422 
811.000000	 0.176582 
810.000000	 0.177721 
809.000000	 0.178880 
808.000000	 0.180112 
807.000000	 0.181449 
806.000000	 0.182868 
805.000000	 0.184274 
804.000000	 0.185573 
803.000000	 0.186760 
802.000000	 0.187929 
801.000000	 0.189160 
800.000000	 0.190433 
799.000000	 0.191688 
798.000000	 0.192924 
797.000000	 0.194193 
796.000000	 0.195511 
795.000000	 0.196829 
794.000000	 0.198113 
793.000000	 0.199382 
792.000000	 0.200664 
791.000000	 0.201957 
790.000000	 0.203248 
789.000000	 0.204551 
788.000000	 0.205885 
787.000000	 0.207248 
786.000000	 0.208621 
785.000000	 0.209985 
784.000000	 0.211303 
783.000000	 0.212527 
782.000000	 0.213662 
781.000000	 0.214793 
780.000000	 0.216020 
779.000000	 0.217363 
778.000000	 0.218748 
777.000000	 0.220098 
776.000000	 0.221405 
775.000000	 0.222715 
774.000000	 0.224082 
773.000000	 0.225516 
772.000000	 0.226971 
771.000000	 0.228373 
770.000000	 0.229677 
769.000000	 0.230902 
768.000000	 0.232121 
767.000000	 0.233403 
766.000000	 0.234764 
765.000000	 0.236168 
764.000000	 0.237567 
763.000000	 0.238931 
762.000000	 0.240259 
761.000000	 0.241567 
760.000000	 0.242873 
759.000000	 0.244201 
758.000000	 0.245564 
757.000000	 0.246949 
756.000000	 0.248317 
755.000000	 0.249629 
754.000000	 0.250878 
753.000000	 0.252077 
752.000000	 0.253249 
751.000000	 0.254433 
750.000000	 0.255688 
749.000000	 0.257053 
748.000000	 0.258505 
747.000000	 0.259965 
746.000000	 0.261356 
745.000000	 0.262637 
744.000000	 0.263830 
743.000000	 0.265026 
742.000000	 0.266349 
741.000000	 0.267853 
740.000000	 0.269455 
739.000000	 0.271015 
738.000000	 0.272477 
737.000000	 0.273904 
736.000000	 0.275373 
735.000000	 0.276878 
734.000000	 0.278338 
733.000000	 0.279673 
732.000000	 0.280848 
731.000000	 0.281919 
730.000000	 0.283033 
729.000000	 0.284327 
728.000000	 0.285801 
727.000000	 0.287315 
726.000000	 0.288758 
725.000000	 0.290148 
724.000000	 0.291551 
723.000000	 0.292940 
722.000000	 0.294239 
721.000000	 0.295472 
720.000000	 0.296790 
719.000000	 0.298345 
718.000000	 0.300169 
717.000000	 0.302192 
716.000000	 0.304307 
715.000000	 0.306394 
714.000000	 0.308341 
713.000000	 0.310109 
712.000000	 0.311748 
711.000000	 0.313330 
710.000000	 0.314853 
709.000000	 0.316249 
708.000000	 0.317497 
707.000000	 0.318659 
706.000000	 0.319804 
705.000000	 0.320897 
704.000000	 0.321850 
703.000000	 0.322672 
702.000000	 0.323547 
701.000000	 0.324686 
700.000000	 0.326142 
699.000000	 0.327768 
698.000000	 0.329360 
697.000000	 0.330786 
696.000000	 0.332017 
695.000000	 0.333093 
694.000000	 0.334080 
693.000000	 0.335027 
692.000000	 0.335948 
691.000000	 0.336857 
690.000000	 0.337817 
689.000000	 0.338912 
688.000000	 0.340157 
687.000000	 0.341481 
686.000000	 0.342828 
685.000000	 0.344231 
684.000000	 0.345727 
683.000000	 0.347252 
682.000000	 0.348667 
681.000000	 0.349893 
680.000000	 0.350990 
679.000000	 0.352105 
678.000000	 0.353364 
677.000000	 0.354803 
676.000000	 0.356355 
675.000000	 0.357891 
674.000000	 0.359272 
673.000000	 0.360423 
672.000000	 0.361395 
671.000000	 0.362380 
670.000000	 0.363601 
669.000000	 0.365146 
668.000000	 0.366846 
667.000000	 0.368416 
666.000000	 0.369685 
665.000000	 0.370662 
664.000000	 0.371538 
663.000000	 0.372566 
662.000000	 0.373923 
661.000000	 0.375613 
660.000000	 0.377436 
659.000000	 0.379074 
658.000000	 0.380299 
657.000000	 0.381174 
656.000000	 0.382001 
655.000000	 0.383058 
654.000000	 0.384328 
653.000000	 0.385567 
652.000000	 0.386644 
651.000000	 0.387597 
650.000000	 0.388575 

